# === DATA DESCRIPTION FILE ======================================================
#
# CAUTION - Investigational device.
# Limited by Federal Law to investigational use.
#
# Dataset name: E:\Export\lena\\CRUISE-004_TurboQUASAR_EPI_7-0-2_SENSE_11_1
#
# CLINICAL TRYOUT             Research image export tool     V4.2
#
# === GENERAL INFORMATION ========================================================
#
.    Patient name                       :   CRUISE-004
.    Examination name                   :   CRUISE-004
.    Protocol name                      :   TurboQUASAR_EPI_7-0-2 SENSE
.    Examination date/time              :   2015.10.21 / 10:09:48
.    Series Type                        :   Image   MRSERIES
.    Acquisition nr                     :   11
.    Reconstruction nr                  :   1
.    Scan Duration [sec]                :   204
.    Max. number of cardiac phases      :   11
.    Max. number of echoes              :   1
.    Max. number of slices/locations    :   15
.    Max. number of dynamics            :   14
.    Max. number of mixes               :   1
.    Patient position                   :   Head First Supine
.    Preparation direction              :   Anterior-Posterior
.    Technique                          :   FEEPI
.    Scan resolution  (x, y)            :   64  62
.    Scan mode                          :   MS
.    Repetition time [ms]               :   600.000  
.    FOV (ap,fh,rl) [mm]                :   240.000  105.000  240.000
.    Water Fat shift [pixels]           :   7.012
.    Angulation midslice(ap,fh,rl)[degr]:   1.299  4.737  6.381
.    Off Centre midslice(ap,fh,rl) [mm] :   3.792  37.165  0.442
.    Flow compensation <0=no 1=yes> ?   :   1
.    Presaturation     <0=no 1=yes> ?   :   0
.    Phase encoding velocity [cm/sec]   :   0.000000  0.000000  0.000000
.    MTC               <0=no 1=yes> ?   :   0
.    SPIR              <0=no 1=yes> ?   :   0
.    EPI factor        <0,1=no EPI>     :   25
.    Dynamic scan      <0=no 1=yes> ?   :   1
.    Diffusion         <0=no 1=yes> ?   :   0
.    Diffusion echo time [ms]           :   0.0000
.    Max. number of diffusion values    :   1
.    Max. number of gradient orients    :   1
.    Number of label types   <0=no ASL> :   2
#
# === PIXEL VALUES =============================================================
#  PV = pixel value in REC file, FP = floating point value, DV = displayed value on console
#  RS = rescale slope,           RI = rescale intercept,    SS = scale slope
#  DV = PV * RS + RI             FP = DV / (RS * SS)
#
# === IMAGE INFORMATION DEFINITION =============================================
#  The rest of this file contains ONE line per image, this line contains the following information:
#
#  slice number                             (integer)
#  echo number                              (integer)
#  dynamic scan number                      (integer)
#  cardiac phase number                     (integer)
#  image_type_mr                            (integer)
#  scanning sequence                        (integer)
#  index in REC file (in images)            (integer)
#  image pixel size (in bits)               (integer)
#  scan percentage                          (integer)
#  recon resolution (x y)                   (2*integer)
#  rescale intercept                        (float)
#  rescale slope                            (float)
#  scale slope                              (float)
#  window center                            (integer)
#  window width                             (integer)
#  image angulation (ap,fh,rl in degrees )  (3*float)
#  image offcentre (ap,fh,rl in mm )        (3*float)
#  slice thickness (in mm )                 (float)
#  slice gap (in mm )                       (float)
#  image_display_orientation                (integer)
#  slice orientation ( TRA/SAG/COR )        (integer)
#  fmri_status_indication                   (integer)
#  image_type_ed_es  (end diast/end syst)   (integer)
#  pixel spacing (x,y) (in mm)              (2*float)
#  echo_time                                (float)
#  dyn_scan_begin_time                      (float)
#  trigger_time                             (float)
#  diffusion_b_factor                       (float)
#  number of averages                       (integer)
#  image_flip_angle (in degrees)            (float)
#  cardiac frequency   (bpm)                (integer)
#  minimum RR-interval (in ms)              (integer)
#  maximum RR-interval (in ms)              (integer)
#  TURBO factor  <0=no turbo>               (integer)
#  Inversion delay (in ms)                  (float)
#  diffusion b value number    (imagekey!)  (integer)
#  gradient orientation number (imagekey!)  (integer)
#  contrast type                            (string)
#  diffusion anisotropy type                (string)
#  diffusion (ap, fh, rl)                   (3*float)
#  label type (ASL)            (imagekey!)  (integer)
#
# === IMAGE INFORMATION ==========================================================
#  sl ec  dyn ph ty    idx pix scan% rec size                (re)scale              window        angulation              offcentre        thick   gap   info      spacing     echo     dtime   ttime    diff  avg  flip    freq   RR-int  turbo delay b grad cont anis         diffusion       L.ty

  1   1    1  1 0 2     0  16   100   64   64     0.00000   3.88791 1.20149e-002  1277  2220   1.30   4.74   6.38    9.24  -11.52   -0.67  7.000  0.000 0 1 0 2  3.750  3.750  15.65    0.00     0.00    0.00   1   35.00     9    0    0    25   0.0  1   1    3    0   0.000    0.000    0.000  1
  1   1    1  1 0 2     1  16   100   64   64     0.00000   3.88791 1.20149e-002  1277  2220   1.30   4.74   6.38    9.24  -11.52   -0.67  7.000  0.000 0 1 0 2  3.750  3.750  15.65    0.00     0.00    0.00   1   35.00     9    0    0    25   0.0  1   1    3    0   0.000    0.000    0.000  2
  2   1    1  1 0 2     2  16   100   64   64     0.00000   3.88791 1.20149e-002   587  1020   1.30   4.74   6.38    8.46   -4.56   -0.51  7.000  0.000 0 1 0 2  3.750  3.750  15.65    0.00    37.00    0.00   1   35.00     9    0    0    25   0.0  1   1    3    0   0.000    0.000    0.000  1
  2   1    1  1 0 2     3  16   100   64   64     0.00000   3.88791 1.20149e-002   587  1020   1.30   4.74   6.38    8.46   -4.56   -0.51  7.000  0.000 0 1 0 2  3.750  3.750  15.65    0.00    37.00    0.00   1   35.00     9    0    0    25   0.0  1   1    3    0   0.000    0.000    0.000  2
  3   1    1  1 0 2     4  16   100   64   64     0.00000   3.88791 1.20149e-002   492   854   1.30   4.74   6.38    7.68    2.39   -0.35  7.000  0.000 0 1 0 2  3.750  3.750  15.65    0.00    73.00    0.00   1   35.00     9    0    0    25   0.0  1   1    3    0   0.000    0.000    0.000  1
  3   1    1  1 0 2     5  16   100   64   64     0.00000   3.88791 1.20149e-002   492   854   1.30   4.74   6.38    7.68    2.39   -0.35  7.000  0.000 0 1 0 2  3.750  3.750  15.65    0.00    73.00    0.00   1   35.00     9    0    0    25   0.0  1   1    3    0   0.000    0.000    0.000  2
  4   1    1  1 0 2     6  16   100   64   64     0.00000   3.88791 1.20149e-002   538   936   1.30   4.74   6.38    6.90    9.35   -0.19  7.000  0.000 0 1 0 2  3.750  3.750  15.65    0.00   110.00    0.00   1   35.00     9    0    0    25   0.0  1   1    3    0   0.000    0.000    0.000  1
  4   1    1  1 0 2     7  16   100   64   64     0.00000   3.88791 1.20149e-002   538   936   1.30   4.74   6.38    6.90    9.35   -0.19  7.000  0.000 0 1 0 2  3.750  3.750  15.65    0.00   110.00    0.00   1   35.00     9    0    0    25   0.0  1   1    3    0   0.000    0.000    0.000  2
  5   1    1  1 0 2     8  16   100   64   64     0.00000   3.88791 1.20149e-002   655  1139   1.30   4.74   6.38    6.13   16.30   -0.03  7.000  0.000 0 1 0 2  3.750  3.750  15.65    0.00   146.00    0.00   1   35.00     9    0    0    25   0.0  1   1    3    0   0.000    0.000    0.000  1
  5   1    1  1 0 2     9  16   100   64   64     0.00000   3.88791 1.20149e-002   655  1139   1.30   4.74   6.38    6.13   16.30   -0.03  7.000  0.000 0 1 0 2  3.750  3.750  15.65    0.00   146.00    0.00   1   35.00     9    0    0    25   0.0  1   1    3    0   0.000    0.000    0.000  2
  6   1    1  1 0 2    10  16   100   64   64     0.00000   3.88791 1.20149e-002   748  1301   1.30   4.74   6.38    5.35   23.26    0.12  7.000  0.000 0 1 0 2  3.750  3.750  15.65    0.00   183.00    0.00   1   35.00     9    0    0    25   0.0  1   1    3    0   0.000    0.000    0.000  1
  6   1    1  1 0 2    11  16   100   64   64     0.00000   3.88791 1.20149e-002   748  1301   1.30   4.74   6.38    5.35   23.26    0.12  7.000  0.000 0 1 0 2  3.750  3.750  15.65    0.00   183.00    0.00   1   35.00     9    0    0    25   0.0  1   1    3    0   0.000    0.000    0.000  2
  7   1    1  1 0 2    12  16   100   64   64     0.00000   3.88791 1.20149e-002   864  1502   1.30   4.74   6.38    4.57   30.21    0.28  7.000  0.000 0 1 0 2  3.750  3.750  15.65    0.00   219.00    0.00   1   35.00     9    0    0    25   0.0  1   1    3    0   0.000    0.000    0.000  1
  7   1    1  1 0 2    13  16   100   64   64     0.00000   3.88791 1.20149e-002   864  1502   1.30   4.74   6.38    4.57   30.21    0.28  7.000  0.000 0 1 0 2  3.750  3.750  15.65    0.00   219.00    0.00   1   35.00     9    0    0    25   0.0  1   1    3    0   0.000    0.000    0.000  2
  8   1    1  1 0 2    14  16   100   64   64     0.00000   3.88791 1.20149e-002   948  1648   1.30   4.74   6.38    3.79   37.17    0.44  7.000  0.000 0 1 0 2  3.750  3.750  15.65    0.00   256.00    0.00   1   35.00     9    0    0    25   0.0  1   1    3    0   0.000    0.000    0.000  1
  8   1    1  1 0 2    15  16   100   64   64     0.00000   3.88791 1.20149e-002   948  1648   1.30   4.74   6.38    3.79   37.17    0.44  7.000  0.000 0 1 0 2  3.750  3.750  15.65    0.00   256.00    0.00   1   35.00     9    0    0    25   0.0  1   1    3    0   0.000    0.000    0.000  2
  9   1    1  1 0 2    16  16   100   64   64     0.00000   3.88791 1.20149e-002  1219  2118   1.30   4.74   6.38    3.01   44.12    0.60  7.000  0.000 0 1 0 2  3.750  3.750  15.65    0.00   292.00    0.00   1   35.00     9    0    0    25   0.0  1   1    3    0   0.000    0.000    0.000  1
  9   1    1  1 0 2    17  16   100   64   64     0.00000   3.88791 1.20149e-002  1219  2118   1.30   4.74   6.38    3.01   44.12    0.60  7.000  0.000 0 1 0 2  3.750  3.750  15.65    0.00   292.00    0.00   1   35.00     9    0    0    25   0.0  1   1    3    0   0.000    0.000    0.000  2
 10   1    1  1 0 2    18  16   100   64   64     0.00000   3.88791 1.20149e-002  1064  1850   1.30   4.74   6.38    2.24   51.08    0.76  7.000  0.000 0 1 0 2  3.750  3.750  15.65    0.00   329.00    0.00   1   35.00     9    0    0    25   0.0  1   1    3    0   0.000    0.000    0.000  1
 10   1    1  1 0 2    19  16   100   64   64     0.00000   3.88791 1.20149e-002  1064  1850   1.30   4.74   6.38    2.24   51.08    0.76  7.000  0.000 0 1 0 2  3.750  3.750  15.65    0.00   329.00    0.00   1   35.00     9    0    0    25   0.0  1   1    3    0   0.000    0.000    0.000  2
 11   1    1  1 0 2    20  16   100   64   64     0.00000   3.88791 1.20149e-002  1208  2101   1.30   4.74   6.38    1.46   58.03    0.92  7.000  0.000 0 1 0 2  3.750  3.750  15.65    0.00   365.00    0.00   1   35.00     9    0    0    25   0.0  1   1    3    0   0.000    0.000    0.000  1
 11   1    1  1 0 2    21  16   100   64   64     0.00000   3.88791 1.20149e-002  1208  2101   1.30   4.74   6.38    1.46   58.03    0.92  7.000  0.000 0 1 0 2  3.750  3.750  15.65    0.00   365.00    0.00   1   35.00     9    0    0    25   0.0  1   1    3    0   0.000    0.000    0.000  2
 12   1    1  1 0 2    22  16   100   64   64     0.00000   3.88791 1.20149e-002  1191  2071   1.30   4.74   6.38    0.68   64.98    1.08  7.000  0.000 0 1 0 2  3.750  3.750  15.65    0.00   402.00    0.00   1   35.00     9    0    0    25   0.0  1   1    3    0   0.000    0.000    0.000  1
 12   1    1  1 0 2    23  16   100   64   64     0.00000   3.88791 1.20149e-002  1191  2071   1.30   4.74   6.38    0.68   64.98    1.08  7.000  0.000 0 1 0 2  3.750  3.750  15.65    0.00   402.00    0.00   1   35.00     9    0    0    25   0.0  1   1    3    0   0.000    0.000    0.000  2
 13   1    1  1 0 2    24  16   100   64   64     0.00000   3.88791 1.20149e-002  1058  1839   1.30   4.74   6.38   -0.10   71.94    1.24  7.000  0.000 0 1 0 2  3.750  3.750  15.65    0.00   438.00    0.00   1   35.00     9    0    0    25   0.0  1   1    3    0   0.000    0.000    0.000  1
 13   1    1  1 0 2    25  16   100   64   64     0.00000   3.88791 1.20149e-002  1058  1839   1.30   4.74   6.38   -0.10   71.94    1.24  7.000  0.000 0 1 0 2  3.750  3.750  15.65    0.00   438.00    0.00   1   35.00     9    0    0    25   0.0  1   1    3    0   0.000    0.000    0.000  2
 14   1    1  1 0 2    26  16   100   64   64     0.00000   3.88791 1.20149e-002  1005  1747   1.30   4.74   6.38   -0.87   78.89    1.39  7.000  0.000 0 1 0 2  3.750  3.750  15.65    0.00   475.00    0.00   1   35.00     9    0    0    25   0.0  1   1    3    0   0.000    0.000    0.000  1
 14   1    1  1 0 2    27  16   100   64   64     0.00000   3.88791 1.20149e-002  1005  1747   1.30   4.74   6.38   -0.87   78.89    1.39  7.000  0.000 0 1 0 2  3.750  3.750  15.65    0.00   475.00    0.00   1   35.00     9    0    0    25   0.0  1   1    3    0   0.000    0.000    0.000  2
 15   1    1  1 0 2    28  16   100   64   64     0.00000   3.88791 1.20149e-002   617  1073   1.30   4.74   6.38   -1.65   85.85    1.55  7.000  0.000 0 1 0 2  3.750  3.750  15.65    0.00   511.00    0.00   1   35.00     9    0    0    25   0.0  1   1    3    0   0.000    0.000    0.000  1
 15   1    1  1 0 2    29  16   100   64   64     0.00000   3.88791 1.20149e-002   617  1073   1.30   4.74   6.38   -1.65   85.85    1.55  7.000  0.000 0 1 0 2  3.750  3.750  15.65    0.00   511.00    0.00   1   35.00     9    0    0    25   0.0  1   1    3    0   0.000    0.000    0.000  2
  1   1    2  1 0 2    30  16   100   64   64     0.00000   3.88791 1.20149e-002  1277  2220   1.30   4.74   6.38    9.24  -11.52   -0.67  7.000  0.000 0 1 0 2  3.750  3.750  15.65   13.60     0.00    0.00   1   35.00     9    0    0    25   0.0  1   1    3    0   0.000    0.000    0.000  1
  1   1    2  1 0 2    31  16   100   64   64     0.00000   3.88791 1.20149e-002  1277  2220   1.30   4.74   6.38    9.24  -11.52   -0.67  7.000  0.000 0 1 0 2  3.750  3.750  15.65   13.60     0.00    0.00   1   35.00     9    0    0    25   0.0  1   1    3    0   0.000    0.000    0.000  2
  2   1    2  1 0 2    32  16   100   64   64     0.00000   3.88791 1.20149e-002   587  1020   1.30   4.74   6.38    8.46   -4.56   -0.51  7.000  0.000 0 1 0 2  3.750  3.750  15.65   13.60    37.00    0.00   1   35.00     9    0    0    25   0.0  1   1    3    0   0.000    0.000    0.000  1
  2   1    2  1 0 2    33  16   100   64   64     0.00000   3.88791 1.20149e-002   587  1020   1.30   4.74   6.38    8.46   -4.56   -0.51  7.000  0.000 0 1 0 2  3.750  3.750  15.65   13.60    37.00    0.00   1   35.00     9    0    0    25   0.0  1   1    3    0   0.000    0.000    0.000  2
  3   1    2  1 0 2    34  16   100   64   64     0.00000   3.88791 1.20149e-002   492   854   1.30   4.74   6.38    7.68    2.39   -0.35  7.000  0.000 0 1 0 2  3.750  3.750  15.65   13.60    73.00    0.00   1   35.00     9    0    0    25   0.0  1   1    3    0   0.000    0.000    0.000  1
  3   1    2  1 0 2    35  16   100   64   64     0.00000   3.88791 1.20149e-002   492   854   1.30   4.74   6.38    7.68    2.39   -0.35  7.000  0.000 0 1 0 2  3.750  3.750  15.65   13.60    73.00    0.00   1   35.00     9    0    0    25   0.0  1   1    3    0   0.000    0.000    0.000  2
  4   1    2  1 0 2    36  16   100   64   64     0.00000   3.88791 1.20149e-002   538   936   1.30   4.74   6.38    6.90    9.35   -0.19  7.000  0.000 0 1 0 2  3.750  3.750  15.65   13.60   110.00    0.00   1   35.00     9    0    0    25   0.0  1   1    3    0   0.000    0.000    0.000  1
  4   1    2  1 0 2    37  16   100   64   64     0.00000   3.88791 1.20149e-002   538   936   1.30   4.74   6.38    6.90    9.35   -0.19  7.000  0.000 0 1 0 2  3.750  3.750  15.65   13.60   110.00    0.00   1   35.00     9    0    0    25   0.0  1   1    3    0   0.000    0.000    0.000  2
  5   1    2  1 0 2    38  16   100   64   64     0.00000   3.88791 1.20149e-002   655  1139   1.30   4.74   6.38    6.13   16.30   -0.03  7.000  0.000 0 1 0 2  3.750  3.750  15.65   13.60   146.00    0.00   1   35.00     9    0    0    25   0.0  1   1    3    0   0.000    0.000    0.000  1
  5   1    2  1 0 2    39  16   100   64   64     0.00000   3.88791 1.20149e-002   655  1139   1.30   4.74   6.38    6.13   16.30   -0.03  7.000  0.000 0 1 0 2  3.750  3.750  15.65   13.60   146.00    0.00   1   35.00     9    0    0    25   0.0  1   1    3    0   0.000    0.000    0.000  2
  6   1    2  1 0 2    40  16   100   64   64     0.00000   3.88791 1.20149e-002   748  1301   1.30   4.74   6.38    5.35   23.26    0.12  7.000  0.000 0 1 0 2  3.750  3.750  15.65   13.60   183.00    0.00   1   35.00     9    0    0    25   0.0  1   1    3    0   0.000    0.000    0.000  1
  6   1    2  1 0 2    41  16   100   64   64     0.00000   3.88791 1.20149e-002   748  1301   1.30   4.74   6.38    5.35   23.26    0.12  7.000  0.000 0 1 0 2  3.750  3.750  15.65   13.60   183.00    0.00   1   35.00     9    0    0    25   0.0  1   1    3    0   0.000    0.000    0.000  2
  7   1    2  1 0 2    42  16   100   64   64     0.00000   3.88791 1.20149e-002   864  1502   1.30   4.74   6.38    4.57   30.21    0.28  7.000  0.000 0 1 0 2  3.750  3.750  15.65   13.60   219.00    0.00   1   35.00     9    0    0    25   0.0  1   1    3    0   0.000    0.000    0.000  1
  7   1    2  1 0 2    43  16   100   64   64     0.00000   3.88791 1.20149e-002   864  1502   1.30   4.74   6.38    4.57   30.21    0.28  7.000  0.000 0 1 0 2  3.750  3.750  15.65   13.60   219.00    0.00   1   35.00     9    0    0    25   0.0  1   1    3    0   0.000    0.000    0.000  2
  8   1    2  1 0 2    44  16   100   64   64     0.00000   3.88791 1.20149e-002   948  1648   1.30   4.74   6.38    3.79   37.17    0.44  7.000  0.000 0 1 0 2  3.750  3.750  15.65   13.60   256.00    0.00   1   35.00     9    0    0    25   0.0  1   1    3    0   0.000    0.000    0.000  1
  8   1    2  1 0 2    45  16   100   64   64     0.00000   3.88791 1.20149e-002   948  1648   1.30   4.74   6.38    3.79   37.17    0.44  7.000  0.000 0 1 0 2  3.750  3.750  15.65   13.60   256.00    0.00   1   35.00     9    0    0    25   0.0  1   1    3    0   0.000    0.000    0.000  2
  9   1    2  1 0 2    46  16   100   64   64     0.00000   3.88791 1.20149e-002  1219  2118   1.30   4.74   6.38    3.01   44.12    0.60  7.000  0.000 0 1 0 2  3.750  3.750  15.65   13.60   292.00    0.00   1   35.00     9    0    0    25   0.0  1   1    3    0   0.000    0.000    0.000  1
  9   1    2  1 0 2    47  16   100   64   64     0.00000   3.88791 1.20149e-002  1219  2118   1.30   4.74   6.38    3.01   44.12    0.60  7.000  0.000 0 1 0 2  3.750  3.750  15.65   13.60   292.00    0.00   1   35.00     9    0    0    25   0.0  1   1    3    0   0.000    0.000    0.000  2
 10   1    2  1 0 2    48  16   100   64   64     0.00000   3.88791 1.20149e-002  1064  1850   1.30   4.74   6.38    2.24   51.08    0.76  7.000  0.000 0 1 0 2  3.750  3.750  15.65   13.60   329.00    0.00   1   35.00     9    0    0    25   0.0  1   1    3    0   0.000    0.000    0.000  1
 10   1    2  1 0 2    49  16   100   64   64     0.00000   3.88791 1.20149e-002  1064  1850   1.30   4.74   6.38    2.24   51.08    0.76  7.000  0.000 0 1 0 2  3.750  3.750  15.65   13.60   329.00    0.00   1   35.00     9    0    0    25   0.0  1   1    3    0   0.000    0.000    0.000  2
 11   1    2  1 0 2    50  16   100   64   64     0.00000   3.88791 1.20149e-002  1208  2101   1.30   4.74   6.38    1.46   58.03    0.92  7.000  0.000 0 1 0 2  3.750  3.750  15.65   13.60   365.00    0.00   1   35.00     9    0    0    25   0.0  1   1    3    0   0.000    0.000    0.000  1
 11   1    2  1 0 2    51  16   100   64   64     0.00000   3.88791 1.20149e-002  1208  2101   1.30   4.74   6.38    1.46   58.03    0.92  7.000  0.000 0 1 0 2  3.750  3.750  15.65   13.60   365.00    0.00   1   35.00     9    0    0    25   0.0  1   1    3    0   0.000    0.000    0.000  2
 12   1    2  1 0 2    52  16   100   64   64     0.00000   3.88791 1.20149e-002  1191  2071   1.30   4.74   6.38    0.68   64.98    1.08  7.000  0.000 0 1 0 2  3.750  3.750  15.65   13.60   402.00    0.00   1   35.00     9    0    0    25   0.0  1   1    3    0   0.000    0.000    0.000  1
 12   1    2  1 0 2    53  16   100   64   64     0.00000   3.88791 1.20149e-002  1191  2071   1.30   4.74   6.38    0.68   64.98    1.08  7.000  0.000 0 1 0 2  3.750  3.750  15.65   13.60   402.00    0.00   1   35.00     9    0    0    25   0.0  1   1    3    0   0.000    0.000    0.000  2
 13   1    2  1 0 2    54  16   100   64   64     0.00000   3.88791 1.20149e-002  1058  1839   1.30   4.74   6.38   -0.10   71.94    1.24  7.000  0.000 0 1 0 2  3.750  3.750  15.65   13.60   438.00    0.00   1   35.00     9    0    0    25   0.0  1   1    3    0   0.000    0.000    0.000  1
 13   1    2  1 0 2    55  16   100   64   64     0.00000   3.88791 1.20149e-002  1058  1839   1.30   4.74   6.38   -0.10   71.94    1.24  7.000  0.000 0 1 0 2  3.750  3.750  15.65   13.60   438.00    0.00   1   35.00     9    0    0    25   0.0  1   1    3    0   0.000    0.000    0.000  2
 14   1    2  1 0 2    56  16   100   64   64     0.00000   3.88791 1.20149e-002  1005  1747   1.30   4.74   6.38   -0.87   78.89    1.39  7.000  0.000 0 1 0 2  3.750  3.750  15.65   13.60   475.00    0.00   1   35.00     9    0    0    25   0.0  1   1    3    0   0.000    0.000    0.000  1
 14   1    2  1 0 2    57  16   100   64   64     0.00000   3.88791 1.20149e-002  1005  1747   1.30   4.74   6.38   -0.87   78.89    1.39  7.000  0.000 0 1 0 2  3.750  3.750  15.65   13.60   475.00    0.00   1   35.00     9    0    0    25   0.0  1   1    3    0   0.000    0.000    0.000  2
 15   1    2  1 0 2    58  16   100   64   64     0.00000   3.88791 1.20149e-002   617  1073   1.30   4.74   6.38   -1.65   85.85    1.55  7.000  0.000 0 1 0 2  3.750  3.750  15.65   13.60   511.00    0.00   1   35.00     9    0    0    25   0.0  1   1    3    0   0.000    0.000    0.000  1
 15   1    2  1 0 2    59  16   100   64   64     0.00000   3.88791 1.20149e-002   617  1073   1.30   4.74   6.38   -1.65   85.85    1.55  7.000  0.000 0 1 0 2  3.750  3.750  15.65   13.60   511.00    0.00   1   35.00     9    0    0    25   0.0  1   1    3    0   0.000    0.000    0.000  2
  1   1    3  1 0 2    60  16   100   64   64     0.00000   3.88791 1.20149e-002  1277  2220   1.30   4.74   6.38    9.24  -11.52   -0.67  7.000  0.000 0 1 0 2  3.750  3.750  15.65   27.20     0.00    0.00   1   35.00     9    0    0    25   0.0  1   1    3    0   0.000    0.000    0.000  1
  1   1    3  1 0 2    61  16   100   64   64     0.00000   3.88791 1.20149e-002  1277  2220   1.30   4.74   6.38    9.24  -11.52   -0.67  7.000  0.000 0 1 0 2  3.750  3.750  15.65   27.20     0.00    0.00   1   35.00     9    0    0    25   0.0  1   1    3    0   0.000    0.000    0.000  2
  2   1    3  1 0 2    62  16   100   64   64     0.00000   3.88791 1.20149e-002   587  1020   1.30   4.74   6.38    8.46   -4.56   -0.51  7.000  0.000 0 1 0 2  3.750  3.750  15.65   27.20    37.00    0.00   1   35.00     9    0    0    25   0.0  1   1    3    0   0.000    0.000    0.000  1
  2   1    3  1 0 2    63  16   100   64   64     0.00000   3.88791 1.20149e-002   587  1020   1.30   4.74   6.38    8.46   -4.56   -0.51  7.000  0.000 0 1 0 2  3.750  3.750  15.65   27.20    37.00    0.00   1   35.00     9    0    0    25   0.0  1   1    3    0   0.000    0.000    0.000  2
  3   1    3  1 0 2    64  16   100   64   64     0.00000   3.88791 1.20149e-002   492   854   1.30   4.74   6.38    7.68    2.39   -0.35  7.000  0.000 0 1 0 2  3.750  3.750  15.65   27.20    73.00    0.00   1   35.00     9    0    0    25   0.0  1   1    3    0   0.000    0.000    0.000  1
  3   1    3  1 0 2    65  16   100   64   64     0.00000   3.88791 1.20149e-002   492   854   1.30   4.74   6.38    7.68    2.39   -0.35  7.000  0.000 0 1 0 2  3.750  3.750  15.65   27.20    73.00    0.00   1   35.00     9    0    0    25   0.0  1   1    3    0   0.000    0.000    0.000  2
  4   1    3  1 0 2    66  16   100   64   64     0.00000   3.88791 1.20149e-002   538   936   1.30   4.74   6.38    6.90    9.35   -0.19  7.000  0.000 0 1 0 2  3.750  3.750  15.65   27.20   110.00    0.00   1   35.00     9    0    0    25   0.0  1   1    3    0   0.000    0.000    0.000  1
  4   1    3  1 0 2    67  16   100   64   64     0.00000   3.88791 1.20149e-002   538   936   1.30   4.74   6.38    6.90    9.35   -0.19  7.000  0.000 0 1 0 2  3.750  3.750  15.65   27.20   110.00    0.00   1   35.00     9    0    0    25   0.0  1   1    3    0   0.000    0.000    0.000  2
  5   1    3  1 0 2    68  16   100   64   64     0.00000   3.88791 1.20149e-002   655  1139   1.30   4.74   6.38    6.13   16.30   -0.03  7.000  0.000 0 1 0 2  3.750  3.750  15.65   27.20   146.00    0.00   1   35.00     9    0    0    25   0.0  1   1    3    0   0.000    0.000    0.000  1
  5   1    3  1 0 2    69  16   100   64   64     0.00000   3.88791 1.20149e-002   655  1139   1.30   4.74   6.38    6.13   16.30   -0.03  7.000  0.000 0 1 0 2  3.750  3.750  15.65   27.20   146.00    0.00   1   35.00     9    0    0    25   0.0  1   1    3    0   0.000    0.000    0.000  2
  6   1    3  1 0 2    70  16   100   64   64     0.00000   3.88791 1.20149e-002   748  1301   1.30   4.74   6.38    5.35   23.26    0.12  7.000  0.000 0 1 0 2  3.750  3.750  15.65   27.20   183.00    0.00   1   35.00     9    0    0    25   0.0  1   1    3    0   0.000    0.000    0.000  1
  6   1    3  1 0 2    71  16   100   64   64     0.00000   3.88791 1.20149e-002   748  1301   1.30   4.74   6.38    5.35   23.26    0.12  7.000  0.000 0 1 0 2  3.750  3.750  15.65   27.20   183.00    0.00   1   35.00     9    0    0    25   0.0  1   1    3    0   0.000    0.000    0.000  2
  7   1    3  1 0 2    72  16   100   64   64     0.00000   3.88791 1.20149e-002   864  1502   1.30   4.74   6.38    4.57   30.21    0.28  7.000  0.000 0 1 0 2  3.750  3.750  15.65   27.20   219.00    0.00   1   35.00     9    0    0    25   0.0  1   1    3    0   0.000    0.000    0.000  1
  7   1    3  1 0 2    73  16   100   64   64     0.00000   3.88791 1.20149e-002   864  1502   1.30   4.74   6.38    4.57   30.21    0.28  7.000  0.000 0 1 0 2  3.750  3.750  15.65   27.20   219.00    0.00   1   35.00     9    0    0    25   0.0  1   1    3    0   0.000    0.000    0.000  2
  8   1    3  1 0 2    74  16   100   64   64     0.00000   3.88791 1.20149e-002   948  1648   1.30   4.74   6.38    3.79   37.17    0.44  7.000  0.000 0 1 0 2  3.750  3.750  15.65   27.20   256.00    0.00   1   35.00     9    0    0    25   0.0  1   1    3    0   0.000    0.000    0.000  1
  8   1    3  1 0 2    75  16   100   64   64     0.00000   3.88791 1.20149e-002   948  1648   1.30   4.74   6.38    3.79   37.17    0.44  7.000  0.000 0 1 0 2  3.750  3.750  15.65   27.20   256.00    0.00   1   35.00     9    0    0    25   0.0  1   1    3    0   0.000    0.000    0.000  2
  9   1    3  1 0 2    76  16   100   64   64     0.00000   3.88791 1.20149e-002  1219  2118   1.30   4.74   6.38    3.01   44.12    0.60  7.000  0.000 0 1 0 2  3.750  3.750  15.65   27.20   292.00    0.00   1   35.00     9    0    0    25   0.0  1   1    3    0   0.000    0.000    0.000  1
  9   1    3  1 0 2    77  16   100   64   64     0.00000   3.88791 1.20149e-002  1219  2118   1.30   4.74   6.38    3.01   44.12    0.60  7.000  0.000 0 1 0 2  3.750  3.750  15.65   27.20   292.00    0.00   1   35.00     9    0    0    25   0.0  1   1    3    0   0.000    0.000    0.000  2
 10   1    3  1 0 2    78  16   100   64   64     0.00000   3.88791 1.20149e-002  1064  1850   1.30   4.74   6.38    2.24   51.08    0.76  7.000  0.000 0 1 0 2  3.750  3.750  15.65   27.20   329.00    0.00   1   35.00     9    0    0    25   0.0  1   1    3    0   0.000    0.000    0.000  1
 10   1    3  1 0 2    79  16   100   64   64     0.00000   3.88791 1.20149e-002  1064  1850   1.30   4.74   6.38    2.24   51.08    0.76  7.000  0.000 0 1 0 2  3.750  3.750  15.65   27.20   329.00    0.00   1   35.00     9    0    0    25   0.0  1   1    3    0   0.000    0.000    0.000  2
 11   1    3  1 0 2    80  16   100   64   64     0.00000   3.88791 1.20149e-002  1208  2101   1.30   4.74   6.38    1.46   58.03    0.92  7.000  0.000 0 1 0 2  3.750  3.750  15.65   27.20   365.00    0.00   1   35.00     9    0    0    25   0.0  1   1    3    0   0.000    0.000    0.000  1
 11   1    3  1 0 2    81  16   100   64   64     0.00000   3.88791 1.20149e-002  1208  2101   1.30   4.74   6.38    1.46   58.03    0.92  7.000  0.000 0 1 0 2  3.750  3.750  15.65   27.20   365.00    0.00   1   35.00     9    0    0    25   0.0  1   1    3    0   0.000    0.000    0.000  2
 12   1    3  1 0 2    82  16   100   64   64     0.00000   3.88791 1.20149e-002  1191  2071   1.30   4.74   6.38    0.68   64.98    1.08  7.000  0.000 0 1 0 2  3.750  3.750  15.65   27.20   402.00    0.00   1   35.00     9    0    0    25   0.0  1   1    3    0   0.000    0.000    0.000  1
 12   1    3  1 0 2    83  16   100   64   64     0.00000   3.88791 1.20149e-002  1191  2071   1.30   4.74   6.38    0.68   64.98    1.08  7.000  0.000 0 1 0 2  3.750  3.750  15.65   27.20   402.00    0.00   1   35.00     9    0    0    25   0.0  1   1    3    0   0.000    0.000    0.000  2
